###########################################################################
# Magnetized Noh self-similar solution for
# gamma= 1.66667
#  initial conditions:
# density = 1.00000e-04*r^3.00 [g/cm^3] 
# vshock  = 1.00000e+07        [cm/s]
# vr      = 0.00000e+00        [cm/s]
# vphi    = 0.00000e+00        [cm/s]
# B_phi   = 1.17322e+06*r^1.50 [gauss]
# B_z     = 3.51965e+05*r^1.50 [gauss]
# P       = 0.00000e+00*r^3.00 [erg/cm^3] 
###########################################################################
# step radius     density      velocity     B_phi          Bz        Pressure Vphi
     0 3.00000e+04  2.70001e+09  0.00000e+00  6.09621e+12  1.82886e+12  0.00000e+00   0.00000e+00
   100 2.97707e+04  2.63855e+09  -2.22350e+01  6.02643e+12  1.80793e+12  0.00000e+00   0.00000e+00
   200 2.95430e+04  2.57849e+09  -4.46414e+01  5.95745e+12  1.78723e+12  0.00000e+00   0.00000e+00
   300 2.93171e+04  2.51979e+09  -6.72204e+01  5.88925e+12  1.76678e+12  0.00000e+00   0.00000e+00
   400 2.90930e+04  2.46244e+09  -8.99733e+01  5.82184e+12  1.74655e+12  0.00000e+00   0.00000e+00
   500 2.88705e+04  2.40638e+09  -1.12902e+02  5.75520e+12  1.72656e+12  0.00000e+00   0.00000e+00
   600 2.86498e+04  2.35161e+09  -1.36006e+02  5.68932e+12  1.70680e+12  0.00000e+00   0.00000e+00
   700 2.84308e+04  2.29808e+09  -1.59289e+02  5.62419e+12  1.68726e+12  0.00000e+00   0.00000e+00
   800 2.82134e+04  2.24577e+09  -1.82752e+02  5.55981e+12  1.66794e+12  0.00000e+00   0.00000e+00
   900 2.79977e+04  2.19465e+09  -2.06395e+02  5.49617e+12  1.64885e+12  0.00000e+00   0.00000e+00
  1000 2.77836e+04  2.14469e+09  -2.30220e+02  5.43326e+12  1.62998e+12  0.00000e+00   0.00000e+00
  1100 2.75712e+04  2.09587e+09  -2.54229e+02  5.37106e+12  1.61132e+12  0.00000e+00   0.00000e+00
  1200 2.73604e+04  2.04817e+09  -2.78422e+02  5.30958e+12  1.59287e+12  0.00000e+00   0.00000e+00
  1300 2.71512e+04  2.00154e+09  -3.02803e+02  5.24880e+12  1.57464e+12  0.00000e+00   0.00000e+00
  1400 2.69436e+04  1.95598e+09  -3.27370e+02  5.18872e+12  1.55662e+12  0.00000e+00   0.00000e+00
  1500 2.67376e+04  1.91146e+09  -3.52128e+02  5.12932e+12  1.53880e+12  0.00000e+00   0.00000e+00
  1600 2.65331e+04  1.86795e+09  -3.77076e+02  5.07061e+12  1.52118e+12  0.00000e+00   0.00000e+00
  1700 2.63303e+04  1.82543e+09  -4.02216e+02  5.01257e+12  1.50377e+12  0.00000e+00   0.00000e+00
  1800 2.61289e+04  1.78388e+09  -4.27550e+02  4.95519e+12  1.48656e+12  0.00000e+00   0.00000e+00
  1900 2.59292e+04  1.74327e+09  -4.53079e+02  4.89847e+12  1.46954e+12  0.00000e+00   0.00000e+00
  2000 2.57309e+04  1.70359e+09  -4.78805e+02  4.84239e+12  1.45272e+12  0.00000e+00   0.00000e+00
  2100 2.55342e+04  1.66481e+09  -5.04729e+02  4.78696e+12  1.43609e+12  0.00000e+00   0.00000e+00
  2200 2.53389e+04  1.62692e+09  -5.30853e+02  4.73217e+12  1.41965e+12  0.00000e+00   0.00000e+00
  2300 2.51452e+04  1.58988e+09  -5.57178e+02  4.67800e+12  1.40340e+12  0.00000e+00   0.00000e+00
  2400 2.49529e+04  1.55369e+09  -5.83705e+02  4.62445e+12  1.38734e+12  0.00000e+00   0.00000e+00
  2500 2.47622e+04  1.51833e+09  -6.10438e+02  4.57152e+12  1.37145e+12  0.00000e+00   0.00000e+00
  2600 2.45728e+04  1.48376e+09  -6.37376e+02  4.51919e+12  1.35576e+12  0.00000e+00   0.00000e+00
  2700 2.43849e+04  1.44999e+09  -6.64522e+02  4.46746e+12  1.34024e+12  0.00000e+00   0.00000e+00
  2800 2.41985e+04  1.41698e+09  -6.91876e+02  4.41632e+12  1.32489e+12  0.00000e+00   0.00000e+00
  2900 2.40135e+04  1.38473e+09  -7.19442e+02  4.36576e+12  1.30973e+12  0.00000e+00   0.00000e+00
  3000 2.38299e+04  1.35321e+09  -7.47220e+02  4.31579e+12  1.29474e+12  0.00000e+00   0.00000e+00
  3100 2.36477e+04  1.32241e+09  -7.75212e+02  4.26639e+12  1.27992e+12  0.00000e+00   0.00000e+00
  3200 2.34669e+04  1.29231e+09  -8.03420e+02  4.21755e+12  1.26526e+12  0.00000e+00   0.00000e+00
  3300 2.32874e+04  1.26289e+09  -8.31845e+02  4.16927e+12  1.25078e+12  0.00000e+00   0.00000e+00
  3400 2.31094e+04  1.23414e+09  -8.60489e+02  4.12155e+12  1.23646e+12  0.00000e+00   0.00000e+00
  3500 2.29327e+04  1.20605e+09  -8.89354e+02  4.07437e+12  1.22231e+12  0.00000e+00   0.00000e+00
  3600 2.27573e+04  1.17860e+09  -9.18441e+02  4.02773e+12  1.20832e+12  0.00000e+00   0.00000e+00
  3700 2.25833e+04  1.15177e+09  -9.47752e+02  3.98162e+12  1.19449e+12  0.00000e+00   0.00000e+00
  3800 2.24107e+04  1.12555e+09  -9.77289e+02  3.93605e+12  1.18081e+12  0.00000e+00   0.00000e+00
  3900 2.22393e+04  1.09993e+09  -1.00705e+03  3.89099e+12  1.16730e+12  0.00000e+00   0.00000e+00
  4000 2.20693e+04  1.07489e+09  -1.03705e+03  3.84645e+12  1.15394e+12  0.00000e+00   0.00000e+00
  4100 2.19005e+04  1.05042e+09  -1.06727e+03  3.80242e+12  1.14073e+12  0.00000e+00   0.00000e+00
  4200 2.17331e+04  1.02651e+09  -1.09773e+03  3.75890e+12  1.12767e+12  0.00000e+00   0.00000e+00
  4300 2.15669e+04  1.00315e+09  -1.12842e+03  3.71587e+12  1.11476e+12  0.00000e+00   0.00000e+00
  4400 2.14020e+04  9.80314e+08  -1.15935e+03  3.67333e+12  1.10200e+12  0.00000e+00   0.00000e+00
  4500 2.12384e+04  9.57999e+08  -1.19052e+03  3.63128e+12  1.08939e+12  0.00000e+00   0.00000e+00
  4600 2.10760e+04  9.36192e+08  -1.22193e+03  3.58972e+12  1.07692e+12  0.00000e+00   0.00000e+00
  4700 2.09149e+04  9.14882e+08  -1.25358e+03  3.54863e+12  1.06459e+12  0.00000e+00   0.00000e+00
  4800 2.07549e+04  8.94057e+08  -1.28547e+03  3.50800e+12  1.05240e+12  0.00000e+00   0.00000e+00
  4900 2.05963e+04  8.73705e+08  -1.31761e+03  3.46785e+12  1.04035e+12  0.00000e+00   0.00000e+00
  5000 2.04388e+04  8.53817e+08  -1.35000e+03  3.42815e+12  1.02845e+12  0.00000e+00   0.00000e+00
  5100 2.02825e+04  8.34382e+08  -1.38263e+03  3.38891e+12  1.01667e+12  0.00000e+00   0.00000e+00
  5200 2.01274e+04  8.15389e+08  -1.41552e+03  3.35012e+12  1.00504e+12  0.00000e+00   0.00000e+00
  5300 1.99735e+04  7.96829e+08  -1.44866e+03  3.31177e+12  9.93531e+11  0.00000e+00   0.00000e+00
  5400 1.98208e+04  7.78691e+08  -1.48206e+03  3.27386e+12  9.82158e+11  0.00000e+00   0.00000e+00
  5500 1.96693e+04  7.60966e+08  -1.51571e+03  3.23639e+12  9.70916e+11  0.00000e+00   0.00000e+00
  5600 1.95189e+04  7.43644e+08  -1.54962e+03  3.19934e+12  9.59802e+11  0.00000e+00   0.00000e+00
  5700 1.93696e+04  7.26717e+08  -1.58380e+03  3.16272e+12  9.48815e+11  0.00000e+00   0.00000e+00
  5800 1.92215e+04  7.10174e+08  -1.61823e+03  3.12651e+12  9.37954e+11  0.00000e+00   0.00000e+00
  5900 1.90746e+04  6.94009e+08  -1.65294e+03  3.09072e+12  9.27217e+11  0.00000e+00   0.00000e+00
  6000 1.89287e+04  6.78211e+08  -1.68791e+03  3.05534e+12  9.16603e+11  0.00000e+00   0.00000e+00
  6100 1.87840e+04  6.62773e+08  -1.72315e+03  3.02037e+12  9.06111e+11  0.00000e+00   0.00000e+00
  6200 1.86404e+04  6.47687e+08  -1.75866e+03  2.98580e+12  8.95739e+11  0.00000e+00   0.00000e+00
  6300 1.84979e+04  6.32944e+08  -1.79444e+03  2.95162e+12  8.85485e+11  0.00000e+00   0.00000e+00
  6400 1.83564e+04  6.18536e+08  -1.83050e+03  2.91783e+12  8.75349e+11  0.00000e+00   0.00000e+00
  6500 1.82161e+04  6.04456e+08  -1.86684e+03  2.88443e+12  8.65329e+11  0.00000e+00   0.00000e+00
  6600 1.80768e+04  5.90697e+08  -1.90346e+03  2.85141e+12  8.55424e+11  0.00000e+00   0.00000e+00
  6700 1.79386e+04  5.77251e+08  -1.94036e+03  2.81877e+12  8.45632e+11  0.00000e+00   0.00000e+00
  6800 1.78014e+04  5.64112e+08  -1.97755e+03  2.78651e+12  8.35952e+11  0.00000e+00   0.00000e+00
  6900 1.76653e+04  5.51271e+08  -2.01502e+03  2.75461e+12  8.26383e+11  0.00000e+00   0.00000e+00
  7000 1.75303e+04  5.38722e+08  -2.05278e+03  2.72308e+12  8.16924e+11  0.00000e+00   0.00000e+00
  7100 1.73962e+04  5.26460e+08  -2.09083e+03  2.69191e+12  8.07572e+11  0.00000e+00   0.00000e+00
  7200 1.72632e+04  5.14476e+08  -2.12917e+03  2.66109e+12  7.98328e+11  0.00000e+00   0.00000e+00
  7300 1.71312e+04  5.02765e+08  -2.16781e+03  2.63063e+12  7.89190e+11  0.00000e+00   0.00000e+00
  7400 1.70002e+04  4.91321e+08  -2.20675e+03  2.60052e+12  7.80156e+11  0.00000e+00   0.00000e+00
  7500 1.68703e+04  4.80137e+08  -2.24599e+03  2.57075e+12  7.71226e+11  0.00000e+00   0.00000e+00
  7600 1.67413e+04  4.69208e+08  -2.28552e+03  2.54132e+12  7.62397e+11  0.00000e+00   0.00000e+00
  7700 1.66133e+04  4.58527e+08  -2.32537e+03  2.51223e+12  7.53670e+11  0.00000e+00   0.00000e+00
  7800 1.64862e+04  4.48090e+08  -2.36552e+03  2.48348e+12  7.45043e+11  0.00000e+00   0.00000e+00
  7900 1.63602e+04  4.37890e+08  -2.40598e+03  2.45505e+12  7.36515e+11  0.00000e+00   0.00000e+00
  8000 1.62351e+04  4.27922e+08  -2.44675e+03  2.42695e+12  7.28084e+11  0.00000e+00   0.00000e+00
  8100 1.61110e+04  4.18182e+08  -2.48784e+03  2.39917e+12  7.19750e+11  0.00000e+00   0.00000e+00
  8200 1.59878e+04  4.08663e+08  -2.52924e+03  2.37170e+12  7.11511e+11  0.00000e+00   0.00000e+00
  8300 1.58655e+04  3.99360e+08  -2.57096e+03  2.34455e+12  7.03366e+11  0.00000e+00   0.00000e+00
  8400 1.57442e+04  3.90270e+08  -2.61301e+03  2.31772e+12  6.95315e+11  0.00000e+00   0.00000e+00
  8500 1.56239e+04  3.81386e+08  -2.65537e+03  2.29119e+12  6.87356e+11  0.00000e+00   0.00000e+00
  8600 1.55044e+04  3.72705e+08  -2.69807e+03  2.26496e+12  6.79487e+11  0.00000e+00   0.00000e+00
  8700 1.53859e+04  3.64221e+08  -2.74109e+03  2.23903e+12  6.71709e+11  0.00000e+00   0.00000e+00
  8800 1.52682e+04  3.55930e+08  -2.78444e+03  2.21340e+12  6.64020e+11  0.00000e+00   0.00000e+00
  8900 1.51515e+04  3.47828e+08  -2.82813e+03  2.18806e+12  6.56419e+11  0.00000e+00   0.00000e+00
  9000 1.50356e+04  3.39911e+08  -2.87216e+03  2.16302e+12  6.48905e+11  0.00000e+00   0.00000e+00
  9100 1.49207e+04  3.32174e+08  -2.91652e+03  2.13826e+12  6.41478e+11  0.00000e+00   0.00000e+00
  9200 1.48066e+04  3.24612e+08  -2.96123e+03  2.11378e+12  6.34135e+11  0.00000e+00   0.00000e+00
  9300 1.46934e+04  3.17223e+08  -3.00628e+03  2.08959e+12  6.26876e+11  0.00000e+00   0.00000e+00
  9400 1.45810e+04  3.10002e+08  -3.05167e+03  2.06567e+12  6.19700e+11  0.00000e+00   0.00000e+00
  9500 1.44695e+04  3.02946e+08  -3.09742e+03  2.04202e+12  6.12606e+11  0.00000e+00   0.00000e+00
  9600 1.43589e+04  2.96050e+08  -3.14352e+03  2.01865e+12  6.05594e+11  0.00000e+00   0.00000e+00
  9700 1.42491e+04  2.89311e+08  -3.18997e+03  1.99554e+12  5.98662e+11  0.00000e+00   0.00000e+00
  9800 1.41402e+04  2.82726e+08  -3.23679e+03  1.97270e+12  5.91809e+11  0.00000e+00   0.00000e+00
  9900 1.40321e+04  2.76290e+08  -3.28396e+03  1.95011e+12  5.85034e+11  0.00000e+00   0.00000e+00
 10000 1.39248e+04  2.70001e+08  -3.33150e+03  1.92779e+12  5.78338e+11  0.00000e+00   0.00000e+00
 10100 1.38183e+04  2.63855e+08  -3.37940e+03  1.90572e+12  5.71717e+11  0.00000e+00   0.00000e+00
 10200 1.37127e+04  2.57849e+08  -3.42767e+03  1.88391e+12  5.65173e+11  0.00000e+00   0.00000e+00
 10300 1.36078e+04  2.51979e+08  -3.47632e+03  1.86235e+12  5.58704e+11  0.00000e+00   0.00000e+00
 10400 1.35038e+04  2.46244e+08  -3.52534e+03  1.84103e+12  5.52308e+11  0.00000e+00   0.00000e+00
 10500 1.34005e+04  2.40638e+08  -3.57473e+03  1.81995e+12  5.45986e+11  0.00000e+00   0.00000e+00
 10600 1.32981e+04  2.35161e+08  -3.62451e+03  1.79912e+12  5.39736e+11  0.00000e+00   0.00000e+00
 10700 1.31964e+04  2.29808e+08  -3.67467e+03  1.77853e+12  5.33558e+11  0.00000e+00   0.00000e+00
 10800 1.30955e+04  2.24577e+08  -3.72522e+03  1.75817e+12  5.27450e+11  0.00000e+00   0.00000e+00
 10900 1.29954e+04  2.19465e+08  -3.77615e+03  1.73804e+12  5.21413e+11  0.00000e+00   0.00000e+00
 11000 1.28960e+04  2.14469e+08  -3.82748e+03  1.71815e+12  5.15444e+11  0.00000e+00   0.00000e+00
 11100 1.27974e+04  2.09587e+08  -3.87921e+03  1.69848e+12  5.09544e+11  0.00000e+00   0.00000e+00
 11200 1.26996e+04  2.04817e+08  -3.93133e+03  1.67904e+12  5.03711e+11  0.00000e+00   0.00000e+00
 11300 1.26025e+04  2.00154e+08  -3.98385e+03  1.65982e+12  4.97945e+11  0.00000e+00   0.00000e+00
 11400 1.25061e+04  1.95598e+08  -4.03678e+03  1.64082e+12  4.92245e+11  0.00000e+00   0.00000e+00
 11500 1.24105e+04  1.91146e+08  -4.09012e+03  1.62203e+12  4.86610e+11  0.00000e+00   0.00000e+00
 11600 1.23156e+04  1.86795e+08  -4.14387e+03  1.60347e+12  4.81040e+11  0.00000e+00   0.00000e+00
 11700 1.22214e+04  1.82543e+08  -4.19803e+03  1.58511e+12  4.75534e+11  0.00000e+00   0.00000e+00
 11800 1.21280e+04  1.78388e+08  -4.25261e+03  1.56697e+12  4.70090e+11  0.00000e+00   0.00000e+00
 11900 1.20352e+04  1.74327e+08  -4.30761e+03  1.54903e+12  4.64709e+11  0.00000e+00   0.00000e+00
 12000 1.19432e+04  1.70359e+08  -4.36303e+03  1.53130e+12  4.59390e+11  0.00000e+00   0.00000e+00
 12100 1.18519e+04  1.66481e+08  -4.41888e+03  1.51377e+12  4.54131e+11  0.00000e+00   0.00000e+00
 12200 1.17613e+04  1.62692e+08  -4.47516e+03  1.49644e+12  4.48933e+11  0.00000e+00   0.00000e+00
 12300 1.16714e+04  1.58988e+08  -4.53188e+03  1.47931e+12  4.43794e+11  0.00000e+00   0.00000e+00
 12400 1.15821e+04  1.55369e+08  -4.58903e+03  1.46238e+12  4.38714e+11  0.00000e+00   0.00000e+00
 12500 1.14936e+04  1.51833e+08  -4.64662e+03  1.44564e+12  4.33692e+11  0.00000e+00   0.00000e+00
 12600 1.14057e+04  1.48376e+08  -4.70466e+03  1.42909e+12  4.28728e+11  0.00000e+00   0.00000e+00
 12700 1.13185e+04  1.44999e+08  -4.76314e+03  1.41273e+12  4.23820e+11  0.00000e+00   0.00000e+00
 12800 1.12319e+04  1.41698e+08  -4.82207e+03  1.39656e+12  4.18969e+11  0.00000e+00   0.00000e+00
 12900 1.11461e+04  1.38473e+08  -4.88146e+03  1.38058e+12  4.14173e+11  0.00000e+00   0.00000e+00
 13000 1.10608e+04  1.35321e+08  -4.94130e+03  1.36477e+12  4.09432e+11  0.00000e+00   0.00000e+00
 13100 1.09763e+04  1.32241e+08  -5.00161e+03  1.34915e+12  4.04745e+11  0.00000e+00   0.00000e+00
 13200 1.08924e+04  1.29230e+08  -5.06238e+03  1.33371e+12  4.00112e+11  0.00000e+00   0.00000e+00
 13300 1.08091e+04  1.26289e+08  -5.12362e+03  1.31844e+12  3.95532e+11  0.00000e+00   0.00000e+00
 13400 1.07264e+04  1.23414e+08  -5.18533e+03  1.30335e+12  3.91004e+11  0.00000e+00   0.00000e+00
 13500 1.06444e+04  1.20605e+08  -5.24752e+03  1.28843e+12  3.86528e+11  0.00000e+00   0.00000e+00
 13600 1.05630e+04  1.17860e+08  -5.31018e+03  1.27368e+12  3.82104e+11  0.00000e+00   0.00000e+00
 13700 1.04823e+04  1.15177e+08  -5.37333e+03  1.25910e+12  3.77730e+11  0.00000e+00   0.00000e+00
 13800 1.04021e+04  1.12555e+08  -5.43697e+03  1.24469e+12  3.73406e+11  0.00000e+00   0.00000e+00
 13900 1.03226e+04  1.09993e+08  -5.50109e+03  1.23044e+12  3.69132e+11  0.00000e+00   0.00000e+00
 14000 1.02437e+04  1.07489e+08  -5.56571e+03  1.21635e+12  3.64906e+11  0.00000e+00   0.00000e+00
 14100 1.01653e+04  1.05042e+08  -5.63083e+03  1.20243e+12  3.60729e+11  0.00000e+00   0.00000e+00
 14200 1.00876e+04  1.02651e+08  -5.69644e+03  1.18867e+12  3.56600e+11  0.00000e+00   0.00000e+00
 14300 1.00105e+04  1.00315e+08  -5.76257e+03  1.17506e+12  3.52518e+11  0.00000e+00   0.00000e+00
 14400 9.93394e+03  9.80314e+07  -5.82920e+03  1.16161e+12  3.48483e+11  0.00000e+00   0.00000e+00
 14500 9.85799e+03  9.57999e+07  -5.89635e+03  1.14831e+12  3.44494e+11  0.00000e+00   0.00000e+00
 14600 9.78262e+03  9.36192e+07  -5.96401e+03  1.13517e+12  3.40550e+11  0.00000e+00   0.00000e+00
 14700 9.70782e+03  9.14882e+07  -6.03220e+03  1.12217e+12  3.36652e+11  0.00000e+00   0.00000e+00
 14800 9.63359e+03  8.94057e+07  -6.10091e+03  1.10933e+12  3.32799e+11  0.00000e+00   0.00000e+00
 14900 9.55994e+03  8.73705e+07  -6.17015e+03  1.09663e+12  3.28989e+11  0.00000e+00   0.00000e+00
 15000 9.48684e+03  8.53817e+07  -6.23993e+03  1.08408e+12  3.25223e+11  0.00000e+00   0.00000e+00
 15100 9.41431e+03  8.34382e+07  -6.31024e+03  1.07167e+12  3.21500e+11  0.00000e+00   0.00000e+00
 15200 9.34233e+03  8.15389e+07  -6.38109e+03  1.05940e+12  3.17820e+11  0.00000e+00   0.00000e+00
 15300 9.27090e+03  7.96829e+07  -6.45249e+03  1.04727e+12  3.14182e+11  0.00000e+00   0.00000e+00
 15400 9.20001e+03  7.78691e+07  -6.52444e+03  1.03529e+12  3.10586e+11  0.00000e+00   0.00000e+00
 15500 9.12967e+03  7.60966e+07  -6.59694e+03  1.02343e+12  3.07030e+11  0.00000e+00   0.00000e+00
 15600 9.05986e+03  7.43644e+07  -6.67000e+03  1.01172e+12  3.03516e+11  0.00000e+00   0.00000e+00
 15700 8.99059e+03  7.26716e+07  -6.74363e+03  1.00014e+12  3.00042e+11  0.00000e+00   0.00000e+00
 15800 8.92185e+03  7.10174e+07  -6.81782e+03  9.88690e+11  2.96607e+11  0.00000e+00   0.00000e+00
 15900 8.85364e+03  6.94009e+07  -6.89259e+03  9.77373e+11  2.93212e+11  0.00000e+00   0.00000e+00
 16000 8.78594e+03  6.78211e+07  -6.96793e+03  9.66185e+11  2.89855e+11  0.00000e+00   0.00000e+00
 16100 8.71877e+03  6.62773e+07  -7.04385e+03  9.55125e+11  2.86537e+11  0.00000e+00   0.00000e+00
 16200 8.65210e+03  6.47687e+07  -7.12035e+03  9.44192e+11  2.83258e+11  0.00000e+00   0.00000e+00
 16300 8.58595e+03  6.32944e+07  -7.19745e+03  9.33384e+11  2.80015e+11  0.00000e+00   0.00000e+00
 16400 8.52030e+03  6.18536e+07  -7.27514e+03  9.22699e+11  2.76810e+11  0.00000e+00   0.00000e+00
 16500 8.45516e+03  6.04456e+07  -7.35342e+03  9.12137e+11  2.73641e+11  0.00000e+00   0.00000e+00
 16600 8.39051e+03  5.90697e+07  -7.43231e+03  9.01696e+11  2.70509e+11  0.00000e+00   0.00000e+00
 16700 8.32636e+03  5.77251e+07  -7.51181e+03  8.91374e+11  2.67412e+11  0.00000e+00   0.00000e+00
 16800 8.26269e+03  5.64112e+07  -7.59192e+03  8.81171e+11  2.64351e+11  0.00000e+00   0.00000e+00
 16900 8.19952e+03  5.51271e+07  -7.67265e+03  8.71084e+11  2.61325e+11  0.00000e+00   0.00000e+00
 17000 8.13683e+03  5.38722e+07  -7.75400e+03  8.61113e+11  2.58334e+11  0.00000e+00   0.00000e+00
 17100 8.07461e+03  5.26460e+07  -7.83598e+03  8.51256e+11  2.55377e+11  0.00000e+00   0.00000e+00
 17200 8.01287e+03  5.14476e+07  -7.91859e+03  8.41512e+11  2.52454e+11  0.00000e+00   0.00000e+00
 17300 7.95161e+03  5.02765e+07  -8.00183e+03  8.31879e+11  2.49564e+11  0.00000e+00   0.00000e+00
 17400 7.89081e+03  4.91321e+07  -8.08572e+03  8.22357e+11  2.46707e+11  0.00000e+00   0.00000e+00
 17500 7.83048e+03  4.80137e+07  -8.17025e+03  8.12943e+11  2.43883e+11  0.00000e+00   0.00000e+00
 17600 7.77061e+03  4.69208e+07  -8.25544e+03  8.03637e+11  2.41091e+11  0.00000e+00   0.00000e+00
 17700 7.71119e+03  4.58527e+07  -8.34128e+03  7.94438e+11  2.38331e+11  0.00000e+00   0.00000e+00
 17800 7.65224e+03  4.48090e+07  -8.42778e+03  7.85344e+11  2.35603e+11  0.00000e+00   0.00000e+00
 17900 7.59373e+03  4.37890e+07  -8.51495e+03  7.76355e+11  2.32906e+11  0.00000e+00   0.00000e+00
 18000 7.53567e+03  4.27922e+07  -8.60279e+03  7.67468e+11  2.30240e+11  0.00000e+00   0.00000e+00
 18100 7.47805e+03  4.18182e+07  -8.69130e+03  7.58683e+11  2.27605e+11  0.00000e+00   0.00000e+00
 18200 7.42087e+03  4.08663e+07  -8.78050e+03  7.49998e+11  2.24999e+11  0.00000e+00   0.00000e+00
 18300 7.36413e+03  3.99360e+07  -8.87039e+03  7.41413e+11  2.22424e+11  0.00000e+00   0.00000e+00
 18400 7.30783e+03  3.90270e+07  -8.96097e+03  7.32926e+11  2.19878e+11  0.00000e+00   0.00000e+00
 18500 7.25195e+03  3.81386e+07  -9.05224e+03  7.24536e+11  2.17361e+11  0.00000e+00   0.00000e+00
 18600 7.19651e+03  3.72705e+07  -9.14422e+03  7.16243e+11  2.14873e+11  0.00000e+00   0.00000e+00
 18700 7.14148e+03  3.64221e+07  -9.23691e+03  7.08044e+11  2.12413e+11  0.00000e+00   0.00000e+00
 18800 7.08688e+03  3.55930e+07  -9.33031e+03  6.99939e+11  2.09982e+11  0.00000e+00   0.00000e+00
 18900 7.03269e+03  3.47828e+07  -9.42444e+03  6.91927e+11  2.07578e+11  0.00000e+00   0.00000e+00
 19000 6.97892e+03  3.39911e+07  -9.51928e+03  6.84006e+11  2.05202e+11  0.00000e+00   0.00000e+00
 19100 6.92556e+03  3.32174e+07  -9.61486e+03  6.76177e+11  2.02853e+11  0.00000e+00   0.00000e+00
 19200 6.87261e+03  3.24612e+07  -9.71118e+03  6.68437e+11  2.00531e+11  0.00000e+00   0.00000e+00
 19300 6.82006e+03  3.17223e+07  -9.80823e+03  6.60785e+11  1.98235e+11  0.00000e+00   0.00000e+00
 19400 6.76792e+03  3.10002e+07  -9.90604e+03  6.53221e+11  1.95966e+11  0.00000e+00   0.00000e+00
 19500 6.71617e+03  3.02946e+07  -1.00046e+04  6.45744e+11  1.93723e+11  0.00000e+00   0.00000e+00
